# Well well_0021
# Column 1 depth MDRKB (ft)
# Column 2 Tcorr oneway time (ms)

           4100           616.01
           4150           620.44
           4200           626.15
           4250           633.69
           4300           639.23
           4350           645.46
           4400           650.82
           4450           658.03
           4500           664.86
           4550           670.85
           4600           677.01
           4650           683.14
           4700           689.19
           4750           695.56
           4800           701.94
           4850            708.5
           4900           712.82
           4950              719
           5000            725.2
           5050           732.03
           5100           738.55
           5150           744.83
           5200           751.56
           5250           758.16
           5300           766.37
           5350           773.06
           5400           780.07
           5450           786.63
           5500           793.91
           5550           800.79
           5600           808.69
           5650           816.36
           5700           824.28
           5750           831.35
           5800           838.33
           5850           844.81
           5900            851.4
           5950           858.36
           6000              865
           6050           872.08
           6100           882.29
           6150            888.8
           6200           895.78
           6250           902.74
           6300           909.82
           6350            916.6
           6400           923.74
           6450           930.59
           6500           936.57
           6550           943.04
           6600           949.59
           6650           956.32
           6700           962.57
           6750           969.44
           6800            976.1
           6850           982.44
           6900           990.03
           6950           996.44
           7000          1002.94
           7050          1009.77
           7100          1016.08
           7150          1022.51
           7200          1029.22
           7250          1035.87
           7300          1042.52
           7350          1049.01
           7400           1055.9
           7450          1062.35
           7500          1068.59
           7550           1075.3
           7600          1082.15
           7650          1088.62
           7700          1096.23
           7750          1102.62
           7800           1109.5
           7850          1115.98
           7900          1122.17
           7950          1128.54
           8000          1135.53
           8050          1141.94
           8100          1149.83
           8150          1156.09
           8200          1162.35
           8250          1168.57
           8300          1174.68
           8350           1180.7
           8400          1186.76
           8450          1192.88
           8500          1198.24
           8550          1204.16
           8600          1210.04
           8650          1216.13
           8700          1221.98
           8750          1228.01
           8800          1233.98
           8850          1239.75
           8900          1245.54
           8950          1251.01
           9000          1256.59
           9050          1262.25
           9100          1267.85
           9150          1273.59
           9200          1279.44
           9250          1285.36
           9300          1292.03
           9350          1297.62
           9400          1302.71
           9450          1308.47
           9500          1314.02
           9550          1319.79
           9600          1325.66
           9650          1331.36
           9700          1338.31
           9750          1344.03
           9800          1349.63
           9850          1355.05
           9900          1360.47
           9950           1366.2
          10000           1371.6
          10050           1376.7
          10100          1382.01
          10150          1387.36
          10200          1392.45
          10250          1397.61
          10300          1402.45
          10350          1407.48
          10400          1412.47
          10450          1417.54
          10500          1424.31
          10550          1429.17
          10600           1434.2
          10650          1439.47
          10700          1444.51
          10750          1449.87
          10800          1454.27
          10850          1459.16
          10900          1462.92
          10950          1467.71
          11000          1472.11
          11050          1477.28
          11100          1481.87
          11150          1486.47
          11200           1491.7
          11250           1496.2
          11300          1502.62
          11350          1506.84
          11400          1510.21
          11450          1513.48
          11500          1516.59
          11550          1520.01
          11600          1523.25
          11650          1526.41
          11700          1530.14
          11750          1532.38
          11800          1534.76
          11850          1537.83
          11900          1540.11
          11950          1542.61
          12000          1545.51
          12050          1548.08
          12100          1550.29
          12150          1552.65
          12200          1555.23
          12250          1557.87
          12300          1560.51
          12350          1563.55
          12400          1566.03
          12450          1568.81
          12500          1571.25
          12550          1573.68
          12600           1576.2
          12650          1578.42
          12700          1581.22
          12750          1583.88
          12800          1586.32
          12900          1591.71
          12950          1594.56
          13000           1597.4
          13050          1600.13
          13100          1603.29
          13150          1606.04
          13200           1608.9
          13250          1611.76
          13300          1615.85
          13350          1618.15
          13400          1620.93
          13450          1623.93
          13500          1626.25
          13550           1629.3
          13600          1632.31
          13650          1634.73
          13700          1639.01
          13750          1641.95
          13800          1644.45
          13850          1647.59
          13900          1650.25
          13950          1652.49
          14000          1655.36
          14050          1658.17
          14150          1661.91
          14200          1664.17
          14250          1666.77
          14300          1669.69
          14350          1671.96
          14400          1673.75
          14450          1676.38
          14500          1677.85
          14550           1680.4
          14600          1683.26
          14650          1685.51
          14700          1687.87
          14750          1691.04
          14800           1693.5
          14850          1695.96
          15000          1705.19
          15050          1709.09
          15100          1712.33
          15150          1716.02
          15200          1719.01
          15250          1723.24
          15300          1725.47
          15350          1730.28
          15400          1732.96
          15450          1736.98
          15500          1741.88
          15550          1747.02
          15600          1749.87
          15650          1755.23
          15700          1758.42
          15750          1762.09
          15800          1766.18
          15850          1770.36
          15900          1774.55
          15950          1780.64
          16000          1784.45
          16050          1788.63
          16100          1794.27
          16150          1798.92
          16200          1803.33
          16250          1805.71
          16300          1808.53
          16350          1812.69
          16400          1817.46
          16500          1821.51
          16550          1824.32
          16600          1828.37
          16650          1831.68
          16700          1834.59
          16750          1836.84
          16800          1840.78
          16850          1843.38
          16900          1846.42
          16950          1849.91
          17000          1852.56
