# Well well_0059
# Column 1 depth MDRKB (ft)
# Column 2 Tcorr oneway time (ms)

           9100          1377.11
           9150          1385.04
           9200          1391.55
           9250          1396.38
           9300          1404.78
           9350          1409.75
           9400          1419.07
           9450          1425.78
           9500          1431.24
           9550          1438.61
           9600             1446
           9650          1454.64
           9700          1459.45
           9750          1466.08
           9800          1472.27
           9850          1479.53
           9900          1486.83
           9950          1493.23
          10000          1500.03
          10050          1505.94
          10100          1511.89
          10150          1517.47
          10200          1521.97
          10250          1526.91
          10300          1532.06
          10350          1536.92
          10400          1541.84
          10450          1547.25
          10500          1552.13
          10550          1556.12
          10600          1559.82
          10650          1564.94
          10700          1567.61
          10750          1572.94
          10800          1574.96
          10850          1578.47
          10900          1582.52
          10950          1585.45
          11000          1589.39
          11050          1591.86
          11100          1595.49
          11150          1599.21
          11200          1601.92
          11250           1606.5
          11300          1608.54
          11600          1627.88
          11650          1630.82
          11700          1633.77
          11750          1636.39
          11800          1639.77
          11850          1642.84
          11900          1645.68
          11950           1648.4
          12000          1651.05
          12050          1654.02
          12100          1657.02
          12150          1659.38
          12200          1662.38
          12250          1666.52
          12300          1668.32
          12350           1671.7
          12400          1674.47
          12450          1677.46
          12500          1680.36
          12550          1684.49
          12600          1687.25
          12650          1690.15
          12700          1692.92
          12750          1695.94
          12800          1698.99
          12850          1702.38
          12900          1705.68
          12950           1708.6
          13000          1712.14
          13050          1714.65
          13100          1718.28
          13150          1721.67
          13200             1725
          13450          1742.37
          13500           1745.4
          13550          1748.53
          13600          1751.86
          13650          1754.75
          13700          1758.07
          14000          1787.21
          14050          1791.77
          14100          1796.97
          14150          1801.31
          14200          1805.85
          14250          1810.25
          14300          1814.63
          14350          1819.11
          14400          1823.12
          14450          1827.44
          14500          1833.32
          14550          1837.37
          14600          1841.67
          14650          1844.04
          14700           1849.4
          14750          1850.99
          14800          1854.63
          14850          1858.59
          14900          1861.91
          14950          1866.32
          15000          1869.68
          15050           1873.8
          15100          1876.08
          15150          1881.11
          15200          1884.77
          15250          1888.42
          15300          1893.01
          15350          1897.58
          15400          1902.61
          15450          1905.35
          15500          1909.92
          15550          1914.03
          15600          1918.61
          15650          1923.18
          15700          1925.92
          15750          1931.87
          15800          1936.44
          15850          1939.19
          15900          1946.23
          15950           1949.2
          16000           1953.6
          16050          1959.02
          16100           1962.8
          16150          1966.74
          16200          1972.92
          16250          1975.92
          16300          1980.26
          16350          1983.93
          16400          1987.57
          16450           1991.8
          16500          1994.94
          16550           1997.6
          16600          2001.94
          16650          2007.54
          16700           2009.1
          16750          2012.36
          16800          2015.44
          16850          2017.95
          16900          2019.77
          16950          2023.41
          17000          2027.33
          17050          2029.82
          17200          2041.96
          17250          2043.78
