# Well: well_0034
# Column 1: Depth MDRKB (m)
# Column 2: Tcorr one way time (ms)

          535.7            278.1
          749.4              385
          874.3            448.1
         1149.3            575.3
         1534.4            750.4
         1749.4            858.4
         1924.3            944.5
         2094.4           1033.5
         2224.4           1103.5
         2289.3           1139.5
         2399.3           1190.5
         2504.3             1238
         2699.4           1328.8
         2764.2           1357.4
           2813           1379.5
           2829           1385.5
           2845           1392.4
           2862           1399.2
           2878           1405.4
           2893           1410.4
         2910.7           1418.4
         2928.7           1425.4
         2945.7           1432.1
         2960.2           1437.3
         2976.2             1443
           2994           1450.8
           3010           1456.7
           3029           1463.8
           3048           1469.1
           3065           1476.6
         3084.3           1483.9
         3103.3           1490.5
         3120.7           1495.9
         3126.3           1497.5
         3140.7           1501.4
         3148.3           1503.2
         3173.3           1510.3
         3199.4             1517
         3212.7           1521.9
         3226.4             1525
         3252.4           1531.5
           3281           1538.6
           3313             1546
         3344.7           1552.8
         3494.7           1587.3
         3529.7           1594.8
         3589.7           1607.8
         3644.7           1619.8
         3684.7           1632.8
