# Well well_0018
# Column 1 depth MDRKB (ft)
# Column 2 Tcorr oneway time (ms)

        5876.07            896.6
        6072.93            927.8
        6204.17            943.8
        6269.78            951.8
        6532.27            990.8
        6597.88            999.4
         6663.5           1007.3
        6729.13           1018.2
        6794.75           1027.9
        6860.37           1035.7
        6925.98           1044.3
         6991.6           1053.1
        7057.13           1062.4
        7122.75           1072.5
        7188.37           1079.1
        7253.98           1089.5
         7319.6           1098.3
        7385.23           1106.8
        7450.85           1117.7
        7516.47           1123.3
        7582.08           1133.6
         7647.7           1142.5
        7713.33           1151.5
        7778.95           1161.2
        7844.57           1167.7
        7910.18           1176.6
         7975.8           1184.6
        8041.43           1191.7
        8107.05           1200.4
        8172.67           1207.4
        8238.28           1215.7
         8303.9           1224.6
        8369.43           1231.8
        8435.05             1240
        8500.67           1247.9
        8566.28           1256.7
         8631.9           1264.9
        8697.53           1273.9
        8763.15           1282.6
        8828.77           1290.3
        8894.38           1298.3
           8960           1306.4
        9025.63           1313.9
        9091.25           1322.1
        9156.87           1329.6
        9222.48           1338.2
         9288.1           1346.4
        9353.73           1352.9
        9419.35             1362
        9484.97           1367.4
        9550.58           1375.4
         9616.2           1382.7
        9681.83           1391.1
        9747.45           1398.3
        9813.07           1405.4
        9878.68           1413.4
         9944.3           1421.1
        10009.9           1429.7
        10075.5           1437.3
        10141.2           1444.3
        10206.8           1451.9
        10272.4           1459.1
        10337.5           1466.1
        10403.2           1472.4
        10468.8           1479.1
        10534.4           1486.6
          10600           1497.6
          10666           1498.4
        10731.7             1503
        10797.3           1507.1
        10862.9           1511.5
        10928.5           1515.4
        10994.1           1518.7
        11059.8           1522.4
        11125.4           1525.8
          11191           1529.3
        11256.6           1532.6
        11322.2           1536.7
        11387.8           1540.5
        11453.5           1544.1
        11519.1           1547.8
        11584.7           1551.7
        11650.3           1554.8
          11716           1558.6
        11781.6           1562.2
        11847.2           1566.4
        11912.8           1570.7
        11978.3           1575.3
          12044           1579.5
        12109.6           1583.6
        12175.2           1588.1
        12240.8           1592.5
        12306.4           1596.6
          12372           1601.3
        12437.7           1604.4
        12503.3           1608.8
        12568.9           1612.9
        12634.5           1618.3
        12700.2           1622.4
        12765.8           1626.3
        12831.4           1630.4
          12897           1634.3
        12962.6             1638
        13028.2             1642
        13093.9           1645.7
        13159.5           1649.8
        13225.1           1653.5
        13290.7           1657.3
        13356.3           1660.4
          13422             1664
        13487.6           1667.9
        13553.2             1672
