# Well well_0049
# Column 1 depth MDRKB (m)
# Column 2 Tcorr oneway time (ms)

            800            443.3
           1050            558.6
           1450              718
           1700            823.9
           1725            834.8
           1750            845.2
           1775              857
           1800              868
           1825            880.3
           1850            892.2
           1875            903.5
           1900              915
           1925            925.9
           1950            937.1
           1975            947.5
           2000            958.9
           2025              968
           2050            979.1
           2075            989.1
           2100              999
           2125           1009.5
           2150           1019.5
           2175           1029.1
           2200           1039.2
           2225             1048
           2250           1057.8
           2275           1067.3
           2300           1075.3
           2325           1085.3
           2350           1094.4
           2375           1102.9
           2400           1111.1
           2425           1119.2
           2450             1127
           2475           1135.6
           2500           1143.2
           2525           1150.6
           2550           1159.7
           2575           1168.5
           2600           1175.8
           2625           1185.3
           2650           1191.9
           2675           1201.2
           2700           1209.8
           2725           1218.5
           2750           1226.8
           2775           1236.4
           2800           1243.3
           2825           1249.5
           2850           1256.7
           2875           1266.7
           2900           1271.9
           2925           1279.6
           2950           1287.1
           2975           1296.9
           3000           1303.1
           3025           1310.3
           3050           1317.3
           3075           1324.7
           3100           1334.1
           3125           1342.1
           3150           1348.6
           3175           1355.2
           3200             1363
           3225           1369.3
           3250           1376.2
