# Well well_0036
# Column 1 depth MDRKB (m)
# Column 2 Tcorr oneway time (ms)

            800            420.4
           1225            594.6
           1375            654.5
           1450            689.6
           1525            725.6
           1600            757.6
           1620            767.6
           1640            775.6
           1660            785.6
           1680            797.6
           1700            807.7
           1720            818.7
           1740            827.7
           1760            837.7
           1780            847.7
           1800            858.7
           1820            869.7
           1840            879.8
           1862            890.8
           1880            900.8
           1900            911.8
           1920            920.8
           1940            930.8
           1960            940.8
           1980            950.9
           2000            957.9
           2020            967.9
           2040            975.9
           2060            985.9
           2080              995
           2100             1004
           2120             1014
           2140             1023
           2160             1031
           2180             1040
           2200           1048.1
           2220           1056.1
           2240           1065.1
           2260           1073.1
           2280           1081.1
           2300           1088.1
           2320           1096.2
           2340           1103.2
           2360           1112.2
           2380           1120.2
           2400           1127.2
           2424           1134.3
           2440           1140.3
           2460           1147.3
           2480           1153.3
           2500           1160.4
           2520           1166.4
           2540           1173.4
           2560           1180.5
           2580           1186.5
           2600           1191.5
           2620           1197.5
           2640           1203.5
           2660           1210.6
           2680           1215.6
           2700           1221.6
           2720           1227.6
           2740           1233.6
           2760           1239.6
           2780           1246.6
           2800           1252.6
           2820           1258.6
           2840           1263.6
           2860           1269.6
           2880           1275.6
           2900           1280.6
           2920           1285.6
           2940           1291.6
           2960           1296.6
           2980           1301.6
           3000           1307.6
           3020           1312.6
           3040           1317.6
