# Well well_0012
# Column 1 depth MDRKB (m)
# Column 2 Tcorr oneway time (ms)

           1000           519.72
           1025           531.05
           1050           542.35
           1075           553.97
           1100           564.95
           1125           576.25
           1150           589.23
           1175           599.95
           1200           611.17
           1225           622.85
           1250           633.97
           1275           644.96
           1300           656.29
           1325            667.3
        1350.02           678.19
        1375.05           689.65
        1400.04           701.48
        1425.04           712.14
        1450.03           723.51
        1475.02           735.21
           1500           746.59
           1525           758.09
           1550           769.71
           1575            781.1
           1600           793.28
           1625           805.04
           1650           816.18
           1675           828.63
           1700           840.46
           1725           851.56
           1750           862.97
           1775           874.66
           1800           886.54
           1825           897.95
           1850           909.28
           1875           920.55
           1900           932.61
           1925           944.17
           1950           955.79
           1975            967.5
           2000           979.26
           2025            990.5
           2050          1002.23
           2075          1013.62
           2100          1025.29
           2125          1037.24
           2150          1049.37
           2175          1060.78
           2200          1070.59
           2225           1081.3
           2250           1091.6
           2275          1102.55
           2300          1112.63
           2325          1123.07
           2350          1130.69
           2375          1136.21
           2400          1141.92
           2425          1147.27
           2450          1153.13
           2475           1159.1
           2500           1165.1
           2525          1172.61
           2550          1176.71
           2575          1181.51
           2600          1186.71
           2625          1192.34
           2650          1198.54
           2675          1204.08
           2700          1209.57
           2725          1216.43
           2750          1223.04
           2775          1228.46
           2800          1235.99
           2825          1244.34
           2850          1253.78
           2875          1262.26
           2900          1268.41
           2925          1276.15
           2950          1283.47
           2975           1289.8
           3000          1297.09
           3025          1305.14
           3050          1310.76
           3075          1318.62
           3100          1324.14
           3125          1331.71
           3150          1340.23
