# Well well_0019
# Column 1 depth MDRKB (ft)
# Column 2 Tcorr oneway time (ms)

            327            47.82
         2950.8           470.37
         6055.7           924.18
         6104.9           931.31
         6154.1            938.2
         6203.4           944.42
         6252.6           951.79
         6301.8           958.28
           6351           965.24
         6400.2           971.89
         6449.3           979.69
         6498.5           986.12
         6547.7           993.12
           6597           999.84
         6646.2          1006.24
         6695.4          1013.57
         6744.6          1020.18
         6793.8          1027.26
         6842.9          1033.41
         6892.1           1039.9
         6941.3          1046.92
         6990.6           1053.8
         7039.8          1060.22
           7089          1067.61
         7138.2          1073.94
         7187.4          1080.93
         7237.1          1087.57
         7286.3          1094.04
         7335.5          1100.34
         7384.8          1107.35
           7434          1113.82
         7483.2          1120.19
         7532.4           1126.4
         7581.6          1133.57
         7630.1          1140.07
         7679.3          1146.83
         7728.5           1153.4
         7777.8          1159.94
           7827          1166.15
         7876.2          1173.04
         7925.4          1179.47
         7974.6          1185.92
         8023.7          1192.87
         8072.9          1199.25
         8122.1           1205.6
         8171.4          1211.97
         8220.6          1218.09
         8269.8          1224.99
           8319          1231.15
         8368.2          1237.54
         8417.3          1243.66
         8466.5          1249.83
         8515.7          1255.94
           8565          1262.15
         8614.2          1268.19
         8663.4          1274.95
         8712.6          1281.09
         8761.8          1287.42
         8810.9          1293.46
         8860.1          1299.42
         8909.3          1305.19
         8958.6          1311.28
         9007.8          1316.89
           9057          1322.91
         9106.2          1328.26
         9155.4          1334.18
         9204.5          1339.76
         9253.7          1345.68
         9302.9          1351.74
         9352.2          1357.96
         9401.4          1363.99
         9450.6          1370.12
         9499.8          1376.11
           9549          1382.23
         9598.1           1387.8
         9647.3          1393.42
         9696.5          1399.16
         9745.8          1404.78
           9795          1410.08
         9844.2          1415.89
         9893.4          1421.64
         9942.6          1427.65
         9991.7           1431.9
        10040.9          1437.87
        10090.1          1444.34
        10139.3          1450.61
        10188.6          1455.93
        10237.8           1461.7
          10287          1467.33
        10336.2          1473.06
        10385.3          1477.85
        10434.5           1483.5
        10483.7          1489.22
          10533          1494.92
        10582.2          1499.84
        10631.4          1504.79
        10680.6          1507.92
        10729.8           1511.7
        10778.9          1515.41
        10828.1          1518.17
        10877.3          1521.81
        10899.9             1523
        10949.1          1525.63
        10975.8          1527.69
        10998.3          1528.38
          11025          1531.15
        11047.6          1531.58
        11074.2          1533.92
        11096.8          1534.59
        11123.4          1537.16
          11146          1537.55
        11172.5          1540.01
        11195.2          1540.31
        11221.7          1543.15
        11244.4          1543.22
        11270.9          1545.56
        11320.2          1548.53
        11369.4          1551.28
        11418.6          1553.81
        11467.8          1556.65
          11517          1559.63
        11566.1          1561.55
        11615.3          1564.41
        11664.5          1567.03
        11713.8          1569.72
          11763          1572.82
        11812.2          1575.59
        11861.4          1578.73
        11910.6           1581.7
        11959.7          1584.48
        12008.9          1587.25
        12058.1           1590.1
        12107.4          1593.27
        12156.6          1595.95
        12205.8          1598.95
          12255          1601.46
        12304.2           1604.6
        12353.3          1606.52
        12402.5          1609.31
        12451.7          1612.15
          12501          1615.46
        12550.2          1618.16
        12599.4          1621.23
        12648.6          1624.04
        12697.8          1627.17
        12746.9          1631.17
        12796.1          1633.74
        12845.3          1636.61
        12894.6          1639.59
        12943.8          1641.95
          12993           1645.3
        13042.2          1647.76
        13091.4          1650.58
        13140.5          1653.56
        13189.7           1655.9
        13238.9          1658.61
        13288.2          1661.45
        13337.4          1663.58
        13386.6          1666.67
        13435.8          1669.27
          13485          1671.82
        13534.1          1674.44
        13583.3          1676.97
        13632.5          1680.35
        13681.8          1683.43
          13731          1685.62
        13780.2          1688.84
        13829.4          1691.47
        13878.6          1694.77
        13927.7          1698.77
        13976.9           1702.5
        14026.1          1706.71
        14075.4          1710.95
        14124.6          1714.91
        14173.8          1718.61
          14223          1721.52
        14272.2          1725.27
        14321.3          1730.05
        14370.5          1733.48
        14419.7          1737.24
          14469          1740.97
        14518.2          1745.02
        14567.4          1748.72
        14616.6          1751.31
        14665.8          1754.49
        14714.9          1757.16
        14764.1          1760.53
        14813.3          1763.38
        14862.6          1769.41
        14911.8          1770.27
          14961          1773.41
        15010.2          1776.91
        15059.4          1780.03
        15108.5          1781.76
        15157.7          1785.34
        15206.9          1788.46
        15256.2          1793.98
        15305.4          1794.84
        15354.6          1798.45
        15403.8          1801.48
          15453          1805.04
