# Well well_0020
# Column 1 depth MDRKB (m)
# Column 2 Tcorr one way time (ms)

        1386.84           693.34
        1402.08           701.38
        1417.32            708.3
        1432.56           712.97
         1447.8           722.97
        1463.04           729.45
        1478.28           737.44
        1493.52           744.65
        1508.76           752.79
           1524           761.36
        1539.24            769.9
        1554.48           777.36
        1569.72           784.94
        1584.96           793.57
         1600.2            801.6
        1615.44           809.52
        1630.68           817.22
        1645.92           825.63
        1661.16           833.38
         1676.4           841.41
        1691.64           848.78
        1706.88           857.26
        1722.12           864.12
        1737.36           872.52
         1752.6           880.81
        1767.84           887.82
        1783.08           896.45
        1798.32           904.01
        1813.56           912.04
         1828.8           920.18
        1844.04           927.91
        1859.28           935.57
        1874.52           943.36
        1889.76           950.87
           1905           960.54
        1920.24           966.72
        1935.48            974.8
        1950.72           982.48
        1965.96           989.44
         1981.2           997.98
        1996.44          1005.61
        2011.68          1013.45
        2026.92           1020.3
        2042.16          1028.53
         2057.4          1036.49
        2072.64          1043.76
        2087.88          1050.83
        2103.12          1058.78
        2118.36          1066.11
         2133.6          1073.71
        2148.84          1080.65
        2164.08          1088.54
        2179.32          1096.05
        2194.56          1104.09
         2209.8          1111.23
        2225.04          1117.81
        2240.28          1125.87
        2255.52          1132.98
        2270.76          1140.24
           2286          1147.89
        2301.24          1154.73
        2316.48          1162.17
        2331.72          1169.47
        2346.96          1177.14
         2362.2          1184.86
        2377.44          1192.07
        2392.68          1199.37
        2407.92          1205.52
        2423.16          1212.34
         2438.4          1219.73
        2453.64           1226.5
        2468.88          1234.04
        2484.12          1241.51
        2499.36             1249
         2514.6          1255.35
        2529.84           1262.1
        2545.08          1268.69
        2560.32          1276.25
        2575.56           1282.4
         2590.8          1289.39
        2606.04          1295.48
        2621.28          1303.57
        2636.52           1311.5
        2651.76          1317.41
           2667          1324.37
        2682.24          1331.61
        2697.48          1337.64
        2712.72          1344.23
        2727.96          1350.56
         2743.2           1357.1
        2758.44          1361.53
        2773.68          1366.98
        2788.92          1371.33
        2804.16          1376.24
         2819.4          1380.49
        2834.64          1385.53
        2849.88          1389.93
        2865.12          1393.48
        2880.36          1398.04
         2895.6          1402.41
        2910.84          1406.03
        2926.08          1410.56
        2941.32          1414.68
        2956.56          1418.79
         2971.8          1423.53
        2987.04          1427.93
        3002.28          1433.13
        3017.52           1438.7
        3032.76          1444.15
           3048          1451.23
        3063.24          1456.64
        3078.48          1462.83
        3093.72          1469.45
        3108.96          1475.42
         3124.2          1481.05
        3139.44          1485.85
        3154.68          1492.13
        3169.92          1496.66
        3185.16          1503.35
         3200.4          1509.49
        3215.64          1516.02
        3230.88          1523.84
        3246.12          1532.05
        3261.36          1537.82
         3276.6          1544.83
        3291.84          1551.96
        3307.08          1559.09
        3322.32          1566.64
        3337.56          1574.26
         3352.8          1580.94
        3368.04          1588.59
        3383.28          1595.72
        3398.52          1603.58
        3413.76          1610.49
           3429          1618.51
        3444.24          1625.13
        3459.48          1632.14
        3474.72          1639.67
        3489.96          1646.02
         3505.2          1652.85
        3520.44          1659.26
        3535.68           1665.5
        3550.92          1672.22
        3566.16          1678.25
         3581.4          1685.25
        3596.64          1690.64
        3611.88          1697.46
        3627.12          1704.01
        3642.36          1710.42
         3657.6          1716.66
        3672.84          1723.05
        3688.08          1729.18
        3703.32          1735.53
        3718.56          1741.66
         3733.8          1747.39
        3749.04          1754.08
        3764.28          1760.07
        3779.52          1766.29
        3794.76          1771.92
           3810          1780.01
        3825.24          1785.17
        3840.48          1792.07
        3855.72          1795.79
        3870.96           1802.1
         3886.2          1810.57
        3901.44          1816.75
        3916.68          1822.58
        3931.92          1832.18
        3947.16          1834.24
         3962.4          1840.41
        3977.64          1844.18
        3992.88           1853.1
        4008.12          1856.18
        4023.36          1861.33
         4038.6          1867.84
        4053.84          1872.68
        4069.08          1878.32
        4084.32          1885.18
        4099.56          1892.49
         4114.8           1898.8
        4130.04          1904.43
        4145.28          1911.04
        4160.52          1917.42
        4175.76          1923.18
           4191          1929.86
        4206.24          1934.68
        4221.48          1941.49
        4236.72          1945.09
        4251.96          1950.94
         4267.2          1956.37
        4282.44          1962.41
        4297.68           1968.3
        4312.92          1972.78
        4328.16          1978.39
         4343.4          1984.49
        4358.64          1988.98
        4373.88          1993.36
        4389.12          1997.95
        4404.36          2002.28
         4419.6           2006.5
        4434.84          2009.93
        4450.08          2014.13
        4465.32          2018.27
        4480.56          2022.03
         4495.8          2025.98
        4511.04           2030.1
        4526.28          2032.14
        4541.52          2038.34
        4556.76           2041.6
           4572          2046.76
        4587.24          2049.88
        4602.48          2054.68
        4617.72          2060.09
        4632.96          2063.72
         4648.2          2068.61
        4663.44          2074.28
        4678.68          2077.99
        4693.92          2082.26
        4709.16           2087.3
         4724.4           2092.4
        4739.64          2096.65
        4754.88          2103.75
        4770.12          2106.48
        4785.36          2111.41
         4800.6          2117.15
        4815.84          2119.69
        4831.08          2126.17
        4846.32          2129.21
        4861.56          2133.83
         4876.8          2140.13
        4892.04          2142.93
        4907.28          2150.83
        4922.52          2154.15
        4937.76          2157.26
